#    Var_X        DENSLO     DENSAV     DENSHI    DENSTOT   Radius     Rref   Grav LOGSCALE profwgt
  -85.000      2.538E+00  2.589E+00  2.640E+00  2.632E+00 24681.00 24766.00 10.991    0     .000
  -84.000      2.491E+00  2.541E+00  2.591E+00  2.585E+00 24682.00 24766.00 10.990    0     .000
  -83.000      2.445E+00  2.493E+00  2.543E+00  2.535E+00 24683.00 24766.00 10.990    0     .000
  -82.000      2.399E+00  2.447E+00  2.496E+00  2.486E+00 24684.00 24766.00 10.989    0     .000
  -81.000      2.355E+00  2.402E+00  2.450E+00  2.454E+00 24685.00 24766.00 10.988    0     .000
  -80.000      2.311E+00  2.358E+00  2.405E+00  2.412E+00 24686.00 24766.00 10.987    0     .000
  -79.000      2.269E+00  2.314E+00  2.360E+00  2.366E+00 24687.00 24766.00 10.986    0     .000
  -78.000      2.227E+00  2.271E+00  2.317E+00  2.319E+00 24688.00 24766.00 10.985    0     .000
  -77.000      2.186E+00  2.230E+00  2.274E+00  2.275E+00 24689.00 24766.00 10.984    0     .000
  -76.000      2.146E+00  2.189E+00  2.232E+00  2.240E+00 24690.00 24766.00 10.983    0     .000
  -75.000      2.106E+00  2.148E+00  2.191E+00  2.203E+00 24691.00 24766.00 10.982    0     .000
  -74.000      2.068E+00  2.109E+00  2.151E+00  2.154E+00 24692.00 24766.00 10.981    0     .000
  -73.000      2.030E+00  2.070E+00  2.112E+00  2.110E+00 24693.00 24766.00 10.980    0     .000
  -72.000      1.993E+00  2.033E+00  2.073E+00  2.074E+00 24694.00 24766.00 10.979    0     .000
  -71.000      1.956E+00  1.995E+00  2.035E+00  2.041E+00 24695.00 24766.00 10.978    0     .000
  -70.000      1.921E+00  1.959E+00  1.998E+00  2.001E+00 24696.00 24766.00 10.977    0     .000
  -69.000      1.886E+00  1.923E+00  1.962E+00  1.967E+00 24697.00 24766.00 10.976    0     .000
  -68.000      1.851E+00  1.888E+00  1.926E+00  1.930E+00 24698.00 24766.00 10.976    0     .000
  -67.000      1.818E+00  1.854E+00  1.891E+00  1.888E+00 24699.00 24766.00 10.975    0     .000
  -66.000      1.785E+00  1.821E+00  1.857E+00  1.859E+00 24700.00 24766.00 10.974    0     .000
  -65.000      1.753E+00  1.788E+00  1.823E+00  1.828E+00 24701.00 24766.00 10.973    0     .000
  -64.000      1.721E+00  1.755E+00  1.791E+00  1.777E+00 24702.00 24766.00 10.972    0     .000
  -63.000      1.690E+00  1.724E+00  1.758E+00  1.745E+00 24703.00 24766.00 10.971    0     .000
  -62.000      1.660E+00  1.693E+00  1.727E+00  1.718E+00 24704.00 24766.00 10.970    0     .000
  -61.000      1.630E+00  1.662E+00  1.696E+00  1.693E+00 24705.00 24766.00 10.969    0     .000
  -60.000      1.600E+00  1.633E+00  1.665E+00  1.664E+00 24706.00 24766.00 10.968    0     .000
  -59.000      1.570E+00  1.602E+00  1.634E+00  1.636E+00 24707.00 24766.00 10.967    0     .000
  -58.000      1.541E+00  1.572E+00  1.603E+00  1.606E+00 24708.00 24766.00 10.966    0     .000
  -57.000      1.512E+00  1.542E+00  1.573E+00  1.574E+00 24709.00 24766.00 10.965    0     .000
  -56.000      1.484E+00  1.514E+00  1.544E+00  1.549E+00 24710.00 24766.00 10.964    0     .000
  -55.000      1.456E+00  1.485E+00  1.515E+00  1.521E+00 24711.00 24766.00 10.963    0     .000
  -54.000      1.429E+00  1.457E+00  1.486E+00  1.494E+00 24712.00 24766.00 10.962    0     .000
  -53.000      1.402E+00  1.430E+00  1.458E+00  1.462E+00 24713.00 24766.00 10.962    0     .000
  -52.000      1.375E+00  1.403E+00  1.431E+00  1.429E+00 24714.00 24766.00 10.961    0     .000
  -51.000      1.349E+00  1.376E+00  1.404E+00  1.402E+00 24715.00 24766.00 10.960    0     .000
  -50.000      1.324E+00  1.351E+00  1.378E+00  1.377E+00 24716.00 24766.00 10.959    0     .000
  -49.000      1.299E+00  1.325E+00  1.351E+00  1.356E+00 24717.00 24766.00 10.958    0     .000
  -48.000      1.274E+00  1.300E+00  1.326E+00  1.329E+00 24718.00 24766.00 10.957    0     .000
  -47.000      1.250E+00  1.275E+00  1.301E+00  1.303E+00 24719.00 24766.00 10.956    0     .000
  -46.000      1.226E+00  1.251E+00  1.276E+00  1.281E+00 24720.00 24766.00 10.955    0     .000
  -45.000      1.203E+00  1.227E+00  1.252E+00  1.257E+00 24721.00 24766.00 10.954    0     .000
  -44.000      1.178E+00  1.202E+00  1.226E+00  1.230E+00 24722.00 24766.00 10.953    0     .000
  -43.000      1.154E+00  1.177E+00  1.200E+00  1.200E+00 24723.00 24766.00 10.952    0     .000
  -42.000      1.130E+00  1.152E+00  1.175E+00  1.171E+00 24724.00 24766.00 10.951    0     .000
  -41.000      1.106E+00  1.128E+00  1.151E+00  1.148E+00 24725.00 24766.00 10.950    0     .000
  -40.000      1.083E+00  1.105E+00  1.127E+00  1.123E+00 24726.00 24766.00 10.949    0     .000
  -39.000      1.061E+00  1.082E+00  1.104E+00  1.099E+00 24727.00 24766.00 10.948    0     .000
  -38.000      1.039E+00  1.060E+00  1.081E+00  1.075E+00 24728.00 24766.00 10.948    0     .000
  -37.000      1.018E+00  1.038E+00  1.059E+00  1.053E+00 24729.00 24766.00 10.947    0     .000
  -36.000      9.974E-01  1.017E+00  1.038E+00  1.032E+00 24730.00 24766.00 10.946    0     .000
  -35.000      9.773E-01  9.968E-01  1.017E+00  1.009E+00 24731.00 24766.00 10.945    0     .000
  -34.000      9.576E-01  9.767E-01  9.963E-01  9.849E-01 24732.00 24766.00 10.944    0     .000
  -33.000      9.383E-01  9.571E-01  9.763E-01  9.619E-01 24733.00 24766.00 10.943    0     .000
  -32.000      9.196E-01  9.380E-01  9.567E-01  9.409E-01 24734.00 24766.00 10.942    0     .000
  -31.000      9.013E-01  9.193E-01  9.377E-01  9.273E-01 24735.00 24766.00 10.941    0     .000
  -30.000      8.834E-01  9.011E-01  9.191E-01  9.082E-01 24736.00 24766.00 10.940    0     .000
  -29.000      8.639E-01  8.812E-01  8.988E-01  8.868E-01 24737.00 24766.00 10.939    0     .000
  -28.000      8.450E-01  8.619E-01  8.791E-01  8.705E-01 24738.00 24766.00 10.938    0     .000
  -27.000      8.265E-01  8.431E-01  8.599E-01  8.526E-01 24739.00 24766.00 10.937    0     .000
  -26.000      8.086E-01  8.247E-01  8.412E-01  8.272E-01 24740.00 24766.00 10.936    0     .000
  -25.000      7.911E-01  8.069E-01  8.231E-01  8.091E-01 24741.00 24766.00 10.935    0     .000
  -24.000      7.733E-01  7.888E-01  8.045E-01  7.920E-01 24742.00 24766.00 10.935    0     .000
  -23.000      7.560E-01  7.711E-01  7.865E-01  7.723E-01 24743.00 24766.00 10.934    0     .000
  -22.000      7.392E-01  7.539E-01  7.690E-01  7.572E-01 24744.00 24766.00 10.933    0     .000
  -21.000      7.228E-01  7.373E-01  7.520E-01  7.385E-01 24745.00 24766.00 10.932    0     .000
  -20.000      7.069E-01  7.211E-01  7.355E-01  7.210E-01 24746.00 24766.00 10.931    0     .000
  -19.000      6.903E-01  7.041E-01  7.181E-01  7.030E-01 24747.00 24766.00 10.930    0     .000
  -18.000      6.741E-01  6.876E-01  7.013E-01  6.845E-01 24748.00 24766.00 10.929    0     .000
  -17.000      6.584E-01  6.716E-01  6.850E-01  6.662E-01 24749.00 24766.00 10.928    0     .000
  -16.000      6.432E-01  6.561E-01  6.692E-01  6.536E-01 24750.00 24766.00 10.927    0     .000
  -15.000      6.285E-01  6.410E-01  6.539E-01  6.391E-01 24751.00 24766.00 10.926    0     .000
  -14.000      6.118E-01  6.240E-01  6.365E-01  6.253E-01 24752.00 24766.00 10.925    0     .000
  -13.000      5.957E-01  6.076E-01  6.198E-01  6.062E-01 24753.00 24766.00 10.924    0     .000
  -12.000      5.802E-01  5.918E-01  6.036E-01  5.900E-01 24754.00 24766.00 10.923    0     .000
  -11.000      5.652E-01  5.765E-01  5.880E-01  5.763E-01 24755.00 24766.00 10.922    0     .000
  -10.000      5.507E-01  5.617E-01  5.730E-01  5.602E-01 24756.00 24766.00 10.922    0     .000
  -9.0000      5.367E-01  5.475E-01  5.584E-01  5.476E-01 24757.00 24766.00 10.921    0     .000
  -8.0000      5.233E-01  5.337E-01  5.444E-01  5.359E-01 24758.00 24766.00 10.920    0     .000
  -7.0000      5.103E-01  5.205E-01  5.309E-01  5.235E-01 24759.00 24766.00 10.919    0     .000
  -6.0000      4.977E-01  5.077E-01  5.178E-01  5.123E-01 24760.00 24766.00 10.918    0     .000
  -5.0000      4.857E-01  4.954E-01  5.053E-01  4.993E-01 24761.00 24766.00 10.917    0     .000
  -4.0000      4.740E-01  4.835E-01  4.932E-01  4.854E-01 24762.00 24766.00 10.916    0     .000
  -3.0000      4.628E-01  4.721E-01  4.815E-01  4.761E-01 24763.00 24766.00 10.915    0     .000
  -2.0000      4.520E-01  4.610E-01  4.703E-01  4.653E-01 24764.00 24766.00 10.914    0     .000
  -1.0000      4.416E-01  4.504E-01  4.594E-01  4.564E-01 24765.00 24766.00 10.913    0     .000
   .00000      4.316E-01  4.402E-01  4.490E-01  4.463E-01 24766.00 24766.00 10.912    0     .000
   1.0000      4.149E-01  4.239E-01  4.331E-01  4.289E-01 24767.00 24766.00 10.911    0     .000
   2.0000      3.990E-01  4.083E-01  4.178E-01  4.127E-01 24768.00 24766.00 10.910    0     .000
   3.0000      3.838E-01  3.933E-01  4.031E-01  3.976E-01 24769.00 24766.00 10.910    0     .000
   4.0000      3.692E-01  3.790E-01  3.890E-01  3.854E-01 24770.00 24766.00 10.909    0     .000
   5.0000      3.552E-01  3.652E-01  3.755E-01  3.723E-01 24771.00 24766.00 10.908    0     .000
   6.0000      3.410E-01  3.512E-01  3.616E-01  3.590E-01 24772.00 24766.00 10.907    0     .000
   7.0000      3.275E-01  3.377E-01  3.483E-01  3.454E-01 24773.00 24766.00 10.906    0     .000
   8.0000      3.145E-01  3.249E-01  3.356E-01  3.321E-01 24774.00 24766.00 10.905    0     .000
   9.0000      3.022E-01  3.126E-01  3.235E-01  3.206E-01 24775.00 24766.00 10.904    0     .000
   10.000      2.904E-01  3.009E-01  3.118E-01  3.082E-01 24776.00 24766.00 10.903    0     .000
   11.000      2.773E-01  2.878E-01  2.987E-01  2.947E-01 24777.00 24766.00 10.902    0     .000
   12.000      2.648E-01  2.753E-01  2.862E-01  2.840E-01 24778.00 24766.00 10.901    0     .000
   13.000      2.530E-01  2.634E-01  2.742E-01  2.727E-01 24779.00 24766.00 10.900    0     .000
   14.000      2.417E-01  2.521E-01  2.628E-01  2.611E-01 24780.00 24766.00 10.899    0     .000
   15.000      2.310E-01  2.412E-01  2.520E-01  2.523E-01 24781.00 24766.00 10.898    0     .000
   16.000      2.190E-01  2.291E-01  2.396E-01  2.423E-01 24782.00 24766.00 10.897    0     .000
   17.000      2.077E-01  2.176E-01  2.279E-01  2.304E-01 24783.00 24766.00 10.897    0     .000
   18.000      1.970E-01  2.067E-01  2.168E-01  2.189E-01 24784.00 24766.00 10.896    0     .000
   19.000      1.868E-01  1.963E-01  2.063E-01  2.080E-01 24785.00 24766.00 10.895    0     .000
   20.000      1.772E-01  1.865E-01  1.963E-01  1.998E-01 24786.00 24766.00 10.894    0     .000
   21.000      1.672E-01  1.762E-01  1.858E-01  1.874E-01 24787.00 24766.00 10.893    0     .000
   22.000      1.577E-01  1.665E-01  1.758E-01  1.783E-01 24788.00 24766.00 10.892    0     .000
   23.000      1.488E-01  1.574E-01  1.664E-01  1.698E-01 24789.00 24766.00 10.891    0     .000
   24.000      1.404E-01  1.487E-01  1.575E-01  1.615E-01 24790.00 24766.00 10.890    0     .000
   25.000      1.325E-01  1.406E-01  1.491E-01  1.526E-01 24791.00 24766.00 10.889    0     .000
   26.000      1.245E-01  1.322E-01  1.405E-01  1.464E-01 24792.00 24766.00 10.888    0     .000
   27.000      1.169E-01  1.244E-01  1.324E-01  1.397E-01 24793.00 24766.00 10.887    0     .000
   28.000      1.098E-01  1.170E-01  1.247E-01  1.306E-01 24794.00 24766.00 10.886    0     .000
   29.000      1.032E-01  1.101E-01  1.175E-01  1.251E-01 24795.00 24766.00 10.885    0     .000
   30.000      9.694E-02  1.036E-01  1.107E-01  1.189E-01 24796.00 24766.00 10.885    0     .000
   31.000      9.080E-02  9.719E-02  1.040E-01  1.111E-01 24797.00 24766.00 10.884    0     .000
   32.000      8.505E-02  9.117E-02  9.773E-02  1.052E-01 24798.00 24766.00 10.883    0     .000
   33.000      7.966E-02  8.553E-02  9.182E-02  9.773E-02 24799.00 24766.00 10.882    0     .000
   34.000      7.462E-02  8.023E-02  8.627E-02  9.254E-02 24800.00 24766.00 10.881    0     .000
   35.000      6.990E-02  7.527E-02  8.106E-02  8.674E-02 24801.00 24766.00 10.880    0     .000
   36.000      6.538E-02  7.052E-02  7.605E-02  8.287E-02 24802.00 24766.00 10.879    0     .000
   37.000      6.116E-02  6.606E-02  7.136E-02  7.692E-02 24803.00 24766.00 10.878    0     .000
   38.000      5.721E-02  6.189E-02  6.695E-02  7.243E-02 24804.00 24766.00 10.877    0     .000
   39.000      5.352E-02  5.798E-02  6.282E-02  6.775E-02 24805.00 24766.00 10.876    0     .000
   40.000      5.007E-02  5.432E-02  5.894E-02  6.327E-02 24806.00 24766.00 10.875    0     .000
   41.000      4.668E-02  5.072E-02  5.512E-02  5.859E-02 24807.00 24766.00 10.874    0     .000
   42.000      4.352E-02  4.736E-02  5.154E-02  5.616E-02 24808.00 24766.00 10.874    0     .000
   43.000      4.058E-02  4.422E-02  4.820E-02  5.219E-02 24809.00 24766.00 10.873    0     .000
   44.000      3.783E-02  4.129E-02  4.507E-02  4.869E-02 24810.00 24766.00 10.872    0     .000
   45.000      3.527E-02  3.856E-02  4.215E-02  4.593E-02 24811.00 24766.00 10.871    0     .000
   46.000      3.282E-02  3.593E-02  3.934E-02  4.226E-02 24812.00 24766.00 10.870    0     .000
   47.000      3.055E-02  3.349E-02  3.672E-02  3.836E-02 24813.00 24766.00 10.869    0     .000
   48.000      2.843E-02  3.121E-02  3.427E-02  3.585E-02 24814.00 24766.00 10.868    0     .000
   49.000      2.646E-02  2.909E-02  3.199E-02  3.298E-02 24815.00 24766.00 10.867    0     .000
   50.000      2.462E-02  2.711E-02  2.986E-02  3.034E-02 24816.00 24766.00 10.866    0     .000
   51.000      2.293E-02  2.529E-02  2.789E-02  2.764E-02 24817.00 24766.00 10.865    0     .000
   52.000      2.135E-02  2.359E-02  2.605E-02  2.439E-02 24818.00 24766.00 10.864    0     .000
   53.000      1.989E-02  2.200E-02  2.433E-02  2.244E-02 24819.00 24766.00 10.863    0     .000
   54.000      1.852E-02  2.052E-02  2.273E-02  2.137E-02 24820.00 24766.00 10.862    0     .000
   55.000      1.725E-02  1.914E-02  2.123E-02  1.999E-02 24821.00 24766.00 10.862    0     .000
   56.000      1.608E-02  1.787E-02  1.985E-02  1.840E-02 24822.00 24766.00 10.861    0     .000
   57.000      1.500E-02  1.669E-02  1.856E-02  1.708E-02 24823.00 24766.00 10.860    0     .000
   58.000      1.398E-02  1.558E-02  1.736E-02  1.569E-02 24824.00 24766.00 10.859    0     .000
   59.000      1.304E-02  1.455E-02  1.623E-02  1.452E-02 24825.00 24766.00 10.858    0     .000
   60.000      1.216E-02  1.359E-02  1.518E-02  1.408E-02 24826.00 24766.00 10.857    0     .000
   61.000      1.134E-02  1.269E-02  1.420E-02  1.298E-02 24827.00 24766.00 10.856    0     .000
   62.000      1.058E-02  1.186E-02  1.329E-02  1.235E-02 24828.00 24766.00 10.855    0     .000
   63.000      9.869E-03  1.108E-02  1.243E-02  1.193E-02 24829.00 24766.00 10.854    0     .000
   64.000      9.207E-03  1.035E-02  1.163E-02  1.168E-02 24830.00 24766.00 10.853    0     .000
   65.000      8.590E-03  9.670E-03  1.088E-02  1.141E-02 24831.00 24766.00 10.852    0     .000
   66.000      8.016E-03  9.036E-03  1.019E-02  1.020E-02 24832.00 24766.00 10.851    0     .000
   67.000      7.480E-03  8.444E-03  9.532E-03  9.770E-03 24833.00 24766.00 10.851    0     .000
   68.000      6.981E-03  7.892E-03  8.922E-03  9.068E-03 24834.00 24766.00 10.850    0     .000
   69.000      6.516E-03  7.377E-03  8.351E-03  8.315E-03 24835.00 24766.00 10.849    0     .000
   70.000      6.082E-03  6.896E-03  7.818E-03  7.771E-03 24836.00 24766.00 10.848    0     .000
   71.000      5.677E-03  6.446E-03  7.318E-03  7.106E-03 24837.00 24766.00 10.847    0     .000
   72.000      5.300E-03  6.026E-03  6.851E-03  6.521E-03 24838.00 24766.00 10.846    0     .000
   73.000      4.948E-03  5.634E-03  6.415E-03  5.691E-03 24839.00 24766.00 10.845    0     .000
   74.000      4.620E-03  5.268E-03  6.006E-03  5.376E-03 24840.00 24766.00 10.844    0     .000
   75.000      4.314E-03  4.926E-03  5.625E-03  4.970E-03 24841.00 24766.00 10.843    0     .000
   76.000      4.006E-03  4.581E-03  5.239E-03  4.554E-03 24842.00 24766.00 10.842    0     .000
   77.000      3.722E-03  4.263E-03  4.881E-03  4.202E-03 24843.00 24766.00 10.841    0     .000
   78.000      3.460E-03  3.968E-03  4.550E-03  3.855E-03 24844.00 24766.00 10.840    0     .000
   79.000      3.218E-03  3.696E-03  4.244E-03  3.345E-03 24845.00 24766.00 10.839    0     .000
   80.000      2.994E-03  3.443E-03  3.960E-03  3.008E-03 24846.00 24766.00 10.839    0     .000
   81.000      2.789E-03  3.206E-03  3.687E-03  2.727E-03 24847.00 24766.00 10.838    0     .000
   82.000      2.599E-03  2.988E-03  3.435E-03  2.547E-03 24848.00 24766.00 10.837    0     .000
   83.000      2.424E-03  2.786E-03  3.202E-03  2.555E-03 24849.00 24766.00 10.836    0     .000
   84.000      2.262E-03  2.599E-03  2.987E-03  2.290E-03 24850.00 24766.00 10.835    0     .000
   85.000      2.112E-03  2.426E-03  2.788E-03  2.084E-03 24851.00 24766.00 10.834    0     .000
   86.000      1.973E-03  2.266E-03  2.603E-03  1.967E-03 24852.00 24766.00 10.833    0     .000
   87.000      1.845E-03  2.118E-03  2.433E-03  1.770E-03 24853.00 24766.00 10.832    0     .000
   88.000      1.726E-03  1.981E-03  2.275E-03  1.644E-03 24854.00 24766.00 10.831    0     .000
   89.000      1.615E-03  1.854E-03  2.129E-03  1.611E-03 24855.00 24766.00 10.830    0     .000
   90.000      1.513E-03  1.736E-03  1.993E-03  1.538E-03 24856.00 24766.00 10.829    0     .000
   91.000      1.439E-03  1.652E-03  1.895E-03  1.474E-03 24857.00 24766.00 10.828    0     .000
   92.000      1.370E-03  1.572E-03  1.803E-03  1.359E-03 24858.00 24766.00 10.828    0     .000
   93.000      1.304E-03  1.496E-03  1.716E-03  1.299E-03 24859.00 24766.00 10.827    0     .000
   94.000      1.242E-03  1.424E-03  1.633E-03  1.250E-03 24860.00 24766.00 10.826    0     .000
   95.000      1.182E-03  1.356E-03  1.555E-03  1.183E-03 24861.00 24766.00 10.825    0     .000
   96.000      1.126E-03  1.291E-03  1.480E-03  1.151E-03 24862.00 24766.00 10.824    0     .000
   97.000      1.073E-03  1.230E-03  1.410E-03  1.110E-03 24863.00 24766.00 10.823    0     .000
   98.000      1.023E-03  1.172E-03  1.343E-03  1.066E-03 24864.00 24766.00 10.822    0     .000
   99.000      9.750E-04  1.117E-03  1.280E-03  1.010E-03 24865.00 24766.00 10.821    0     .000
   100.00      9.296E-04  1.065E-03  1.220E-03  9.737E-04 24866.00 24766.00 10.820    0     .000
   101.00      8.865E-04  1.015E-03  1.163E-03  9.709E-04 24867.00 24766.00 10.819    0     .000
   102.00      8.455E-04  9.681E-04  1.108E-03  9.022E-04 24868.00 24766.00 10.818    0     .000
   103.00      8.066E-04  9.234E-04  1.057E-03  8.694E-04 24869.00 24766.00 10.818    0     .000
   104.00      7.696E-04  8.809E-04  1.008E-03  8.521E-04 24870.00 24766.00 10.817    0     .000
   105.00      7.345E-04  8.405E-04  9.617E-04  8.549E-04 24871.00 24766.00 10.816    0     .000
   106.00      7.100E-04  8.123E-04  9.294E-04  8.946E-04 24872.00 24766.00 10.815    0     .000
   107.00      6.864E-04  7.852E-04  8.981E-04  8.264E-04 24873.00 24766.00 10.814    0     .000
   108.00      6.636E-04  7.590E-04  8.680E-04  8.450E-04 24874.00 24766.00 10.813    0     .000
   109.00      6.416E-04  7.336E-04  8.388E-04  8.026E-04 24875.00 24766.00 10.812    0     .000
   110.00      6.203E-04  7.091E-04  8.107E-04  7.863E-04 24876.00 24766.00 10.811    0     .000
   111.00      5.998E-04  6.856E-04  7.836E-04  7.644E-04 24877.00 24766.00 10.810    0     .000
   112.00      5.800E-04  6.628E-04  7.574E-04  7.089E-04 24878.00 24766.00 10.809    0     .000
   113.00      5.609E-04  6.408E-04  7.321E-04  6.649E-04 24879.00 24766.00 10.808    0     .000
   114.00      5.424E-04  6.195E-04  7.077E-04  6.660E-04 24880.00 24766.00 10.807    0     .000
   115.00      5.245E-04  5.990E-04  6.841E-04  6.545E-04 24881.00 24766.00 10.807    0     .000
   116.00      5.077E-04  5.797E-04  6.619E-04  6.192E-04 24882.00 24766.00 10.806    0     .000
   117.00      4.915E-04  5.611E-04  6.405E-04  6.213E-04 24883.00 24766.00 10.805    0     .000
   118.00      4.758E-04  5.430E-04  6.198E-04  6.309E-04 24884.00 24766.00 10.804    0     .000
   119.00      4.606E-04  5.256E-04  5.998E-04  6.148E-04 24885.00 24766.00 10.803    0     .000
