#    Var_X        DENSLO     DENSAV     DENSHI    DENSTOT   Radius     Rref   Grav LOGSCALE profwgt
  -85.000      2.074E+00  2.116E+00  2.158E+00  2.152E+00 24681.00 24766.00 10.991    0     .000
  -84.000      2.039E+00  2.080E+00  2.121E+00  2.116E+00 24682.00 24766.00 10.990    0     .000
  -83.000      2.004E+00  2.044E+00  2.085E+00  2.078E+00 24683.00 24766.00 10.990    0     .000
  -82.000      1.970E+00  2.010E+00  2.050E+00  2.041E+00 24684.00 24766.00 10.989    0     .000
  -81.000      1.937E+00  1.975E+00  2.015E+00  2.019E+00 24685.00 24766.00 10.988    0     .000
  -80.000      1.904E+00  1.942E+00  1.981E+00  1.987E+00 24686.00 24766.00 10.987    0     .000
  -79.000      1.872E+00  1.909E+00  1.947E+00  1.952E+00 24687.00 24766.00 10.986    0     .000
  -78.000      1.840E+00  1.877E+00  1.914E+00  1.917E+00 24688.00 24766.00 10.985    0     .000
  -77.000      1.809E+00  1.845E+00  1.882E+00  1.882E+00 24689.00 24766.00 10.984    0     .000
  -76.000      1.778E+00  1.814E+00  1.850E+00  1.857E+00 24690.00 24766.00 10.983    0     .000
  -75.000      1.749E+00  1.784E+00  1.819E+00  1.829E+00 24691.00 24766.00 10.982    0     .000
  -74.000      1.719E+00  1.754E+00  1.789E+00  1.791E+00 24692.00 24766.00 10.981    0     .000
  -73.000      1.690E+00  1.724E+00  1.759E+00  1.757E+00 24693.00 24766.00 10.980    0     .000
  -72.000      1.662E+00  1.695E+00  1.729E+00  1.730E+00 24694.00 24766.00 10.979    0     .000
  -71.000      1.634E+00  1.667E+00  1.700E+00  1.705E+00 24695.00 24766.00 10.978    0     .000
  -70.000      1.607E+00  1.639E+00  1.672E+00  1.674E+00 24696.00 24766.00 10.977    0     .000
  -69.000      1.580E+00  1.612E+00  1.644E+00  1.648E+00 24697.00 24766.00 10.976    0     .000
  -68.000      1.554E+00  1.585E+00  1.617E+00  1.620E+00 24698.00 24766.00 10.976    0     .000
  -67.000      1.528E+00  1.559E+00  1.590E+00  1.587E+00 24699.00 24766.00 10.975    0     .000
  -66.000      1.503E+00  1.533E+00  1.564E+00  1.565E+00 24700.00 24766.00 10.974    0     .000
  -65.000      1.478E+00  1.508E+00  1.538E+00  1.541E+00 24701.00 24766.00 10.973    0     .000
  -64.000      1.454E+00  1.483E+00  1.512E+00  1.501E+00 24702.00 24766.00 10.972    0     .000
  -63.000      1.430E+00  1.458E+00  1.487E+00  1.476E+00 24703.00 24766.00 10.971    0     .000
  -62.000      1.406E+00  1.434E+00  1.463E+00  1.456E+00 24704.00 24766.00 10.970    0     .000
  -61.000      1.383E+00  1.411E+00  1.439E+00  1.436E+00 24705.00 24766.00 10.969    0     .000
  -60.000      1.360E+00  1.388E+00  1.415E+00  1.415E+00 24706.00 24766.00 10.968    0     .000
  -59.000      1.337E+00  1.364E+00  1.391E+00  1.393E+00 24707.00 24766.00 10.967    0     .000
  -58.000      1.314E+00  1.341E+00  1.367E+00  1.370E+00 24708.00 24766.00 10.966    0     .000
  -57.000      1.292E+00  1.318E+00  1.344E+00  1.345E+00 24709.00 24766.00 10.965    0     .000
  -56.000      1.270E+00  1.295E+00  1.321E+00  1.325E+00 24710.00 24766.00 10.964    0     .000
  -55.000      1.248E+00  1.273E+00  1.299E+00  1.304E+00 24711.00 24766.00 10.963    0     .000
  -54.000      1.227E+00  1.251E+00  1.276E+00  1.283E+00 24712.00 24766.00 10.962    0     .000
  -53.000      1.206E+00  1.230E+00  1.254E+00  1.257E+00 24713.00 24766.00 10.962    0     .000
  -52.000      1.185E+00  1.209E+00  1.233E+00  1.232E+00 24714.00 24766.00 10.961    0     .000
  -51.000      1.165E+00  1.188E+00  1.212E+00  1.210E+00 24715.00 24766.00 10.960    0     .000
  -50.000      1.145E+00  1.168E+00  1.191E+00  1.191E+00 24716.00 24766.00 10.959    0     .000
  -49.000      1.125E+00  1.148E+00  1.171E+00  1.174E+00 24717.00 24766.00 10.958    0     .000
  -48.000      1.106E+00  1.128E+00  1.150E+00  1.154E+00 24718.00 24766.00 10.957    0     .000
  -47.000      1.087E+00  1.108E+00  1.131E+00  1.133E+00 24719.00 24766.00 10.956    0     .000
  -46.000      1.068E+00  1.089E+00  1.111E+00  1.115E+00 24720.00 24766.00 10.955    0     .000
  -45.000      1.050E+00  1.071E+00  1.092E+00  1.097E+00 24721.00 24766.00 10.954    0     .000
  -44.000      1.029E+00  1.050E+00  1.071E+00  1.075E+00 24722.00 24766.00 10.953    0     .000
  -43.000      1.010E+00  1.030E+00  1.050E+00  1.051E+00 24723.00 24766.00 10.952    0     .000
  -42.000      9.903E-01  1.010E+00  1.030E+00  1.027E+00 24724.00 24766.00 10.951    0     .000
  -41.000      9.714E-01  9.908E-01  1.011E+00  1.008E+00 24725.00 24766.00 10.950    0     .000
  -40.000      9.529E-01  9.719E-01  9.914E-01  9.882E-01 24726.00 24766.00 10.949    0     .000
  -39.000      9.348E-01  9.535E-01  9.726E-01  9.679E-01 24727.00 24766.00 10.948    0     .000
  -38.000      9.172E-01  9.355E-01  9.542E-01  9.488E-01 24728.00 24766.00 10.948    0     .000
  -37.000      8.999E-01  9.179E-01  9.363E-01  9.311E-01 24729.00 24766.00 10.947    0     .000
  -36.000      8.831E-01  9.007E-01  9.188E-01  9.134E-01 24730.00 24766.00 10.946    0     .000
  -35.000      8.666E-01  8.840E-01  9.016E-01  8.946E-01 24731.00 24766.00 10.945    0     .000
  -34.000      8.506E-01  8.676E-01  8.849E-01  8.749E-01 24732.00 24766.00 10.944    0     .000
  -33.000      8.349E-01  8.516E-01  8.686E-01  8.558E-01 24733.00 24766.00 10.943    0     .000
  -32.000      8.196E-01  8.360E-01  8.527E-01  8.386E-01 24734.00 24766.00 10.942    0     .000
  -31.000      8.046E-01  8.207E-01  8.371E-01  8.279E-01 24735.00 24766.00 10.941    0     .000
  -30.000      7.900E-01  8.058E-01  8.219E-01  8.121E-01 24736.00 24766.00 10.940    0     .000
  -29.000      7.741E-01  7.896E-01  8.054E-01  7.946E-01 24737.00 24766.00 10.939    0     .000
  -28.000      7.586E-01  7.738E-01  7.893E-01  7.815E-01 24738.00 24766.00 10.938    0     .000
  -27.000      7.436E-01  7.584E-01  7.736E-01  7.670E-01 24739.00 24766.00 10.937    0     .000
  -26.000      7.289E-01  7.434E-01  7.583E-01  7.457E-01 24740.00 24766.00 10.936    0     .000
  -25.000      7.145E-01  7.288E-01  7.434E-01  7.308E-01 24741.00 24766.00 10.935    0     .000
  -24.000      6.999E-01  7.139E-01  7.282E-01  7.168E-01 24742.00 24766.00 10.935    0     .000
  -23.000      6.857E-01  6.994E-01  7.134E-01  7.005E-01 24743.00 24766.00 10.934    0     .000
  -22.000      6.718E-01  6.853E-01  6.990E-01  6.882E-01 24744.00 24766.00 10.933    0     .000
  -21.000      6.583E-01  6.715E-01  6.849E-01  6.727E-01 24745.00 24766.00 10.932    0     .000
  -20.000      6.452E-01  6.581E-01  6.713E-01  6.581E-01 24746.00 24766.00 10.931    0     .000
  -19.000      6.313E-01  6.440E-01  6.569E-01  6.430E-01 24747.00 24766.00 10.930    0     .000
  -18.000      6.179E-01  6.302E-01  6.428E-01  6.274E-01 24748.00 24766.00 10.929    0     .000
  -17.000      6.048E-01  6.169E-01  6.292E-01  6.119E-01 24749.00 24766.00 10.928    0     .000
  -16.000      5.920E-01  6.039E-01  6.160E-01  6.016E-01 24750.00 24766.00 10.927    0     .000
  -15.000      5.797E-01  5.913E-01  6.031E-01  5.895E-01 24751.00 24766.00 10.926    0     .000
  -14.000      5.655E-01  5.768E-01  5.883E-01  5.780E-01 24752.00 24766.00 10.925    0     .000
  -13.000      5.518E-01  5.628E-01  5.741E-01  5.615E-01 24753.00 24766.00 10.924    0     .000
  -12.000      5.385E-01  5.493E-01  5.602E-01  5.476E-01 24754.00 24766.00 10.923    0     .000
  -11.000      5.257E-01  5.362E-01  5.469E-01  5.360E-01 24755.00 24766.00 10.922    0     .000
  -10.000      5.133E-01  5.235E-01  5.340E-01  5.221E-01 24756.00 24766.00 10.922    0     .000
  -9.0000      5.013E-01  5.113E-01  5.215E-01  5.114E-01 24757.00 24766.00 10.921    0     .000
  -8.0000      4.897E-01  4.995E-01  5.095E-01  5.015E-01 24758.00 24766.00 10.920    0     .000
  -7.0000      4.786E-01  4.881E-01  4.979E-01  4.910E-01 24759.00 24766.00 10.919    0     .000
  -6.0000      4.678E-01  4.771E-01  4.867E-01  4.815E-01 24760.00 24766.00 10.918    0     .000
  -5.0000      4.574E-01  4.665E-01  4.759E-01  4.702E-01 24761.00 24766.00 10.917    0     .000
  -4.0000      4.474E-01  4.563E-01  4.654E-01  4.581E-01 24762.00 24766.00 10.916    0     .000
  -3.0000      4.377E-01  4.464E-01  4.554E-01  4.503E-01 24763.00 24766.00 10.915    0     .000
  -2.0000      4.284E-01  4.369E-01  4.457E-01  4.410E-01 24764.00 24766.00 10.914    0     .000
  -1.0000      4.194E-01  4.278E-01  4.363E-01  4.335E-01 24765.00 24766.00 10.913    0     .000
   .00000      4.107E-01  4.190E-01  4.273E-01  4.247E-01 24766.00 24766.00 10.912    0     .000
   1.0000      3.953E-01  4.038E-01  4.126E-01  4.085E-01 24767.00 24766.00 10.911    0     .000
   2.0000      3.805E-01  3.893E-01  3.984E-01  3.935E-01 24768.00 24766.00 10.910    0     .000
   3.0000      3.662E-01  3.754E-01  3.847E-01  3.795E-01 24769.00 24766.00 10.910    0     .000
   4.0000      3.526E-01  3.619E-01  3.715E-01  3.681E-01 24770.00 24766.00 10.909    0     .000
   5.0000      3.395E-01  3.491E-01  3.589E-01  3.558E-01 24771.00 24766.00 10.908    0     .000
   6.0000      3.264E-01  3.361E-01  3.461E-01  3.436E-01 24772.00 24766.00 10.907    0     .000
   7.0000      3.138E-01  3.236E-01  3.338E-01  3.309E-01 24773.00 24766.00 10.906    0     .000
   8.0000      3.017E-01  3.116E-01  3.219E-01  3.186E-01 24774.00 24766.00 10.905    0     .000
   9.0000      2.901E-01  3.002E-01  3.106E-01  3.078E-01 24775.00 24766.00 10.904    0     .000
   10.000      2.791E-01  2.892E-01  2.997E-01  2.962E-01 24776.00 24766.00 10.903    0     .000
   11.000      2.671E-01  2.772E-01  2.877E-01  2.839E-01 24777.00 24766.00 10.902    0     .000
   12.000      2.557E-01  2.658E-01  2.763E-01  2.742E-01 24778.00 24766.00 10.901    0     .000
   13.000      2.448E-01  2.549E-01  2.654E-01  2.639E-01 24779.00 24766.00 10.900    0     .000
   14.000      2.344E-01  2.445E-01  2.549E-01  2.533E-01 24780.00 24766.00 10.899    0     .000
   15.000      2.245E-01  2.345E-01  2.449E-01  2.452E-01 24781.00 24766.00 10.898    0     .000
   16.000      2.138E-01  2.236E-01  2.339E-01  2.364E-01 24782.00 24766.00 10.897    0     .000
   17.000      2.035E-01  2.132E-01  2.234E-01  2.258E-01 24783.00 24766.00 10.897    0     .000
   18.000      1.938E-01  2.033E-01  2.133E-01  2.154E-01 24784.00 24766.00 10.896    0     .000
   19.000      1.845E-01  1.939E-01  2.038E-01  2.055E-01 24785.00 24766.00 10.895    0     .000
   20.000      1.757E-01  1.850E-01  1.947E-01  1.982E-01 24786.00 24766.00 10.894    0     .000
   21.000      1.664E-01  1.754E-01  1.849E-01  1.865E-01 24787.00 24766.00 10.893    0     .000
   22.000      1.576E-01  1.664E-01  1.757E-01  1.782E-01 24788.00 24766.00 10.892    0     .000
   23.000      1.493E-01  1.578E-01  1.669E-01  1.703E-01 24789.00 24766.00 10.891    0     .000
   24.000      1.414E-01  1.497E-01  1.585E-01  1.626E-01 24790.00 24766.00 10.890    0     .000
   25.000      1.339E-01  1.420E-01  1.506E-01  1.542E-01 24791.00 24766.00 10.889    0     .000
   26.000      1.263E-01  1.342E-01  1.425E-01  1.486E-01 24792.00 24766.00 10.888    0     .000
   27.000      1.192E-01  1.268E-01  1.349E-01  1.424E-01 24793.00 24766.00 10.887    0     .000
   28.000      1.124E-01  1.198E-01  1.276E-01  1.336E-01 24794.00 24766.00 10.886    0     .000
   29.000      1.061E-01  1.132E-01  1.208E-01  1.286E-01 24795.00 24766.00 10.885    0     .000
   30.000      1.001E-01  1.070E-01  1.143E-01  1.228E-01 24796.00 24766.00 10.885    0     .000
   31.000      9.425E-02  1.009E-01  1.080E-01  1.153E-01 24797.00 24766.00 10.884    0     .000
   32.000      8.875E-02  9.514E-02  1.020E-01  1.097E-01 24798.00 24766.00 10.883    0     .000
   33.000      8.358E-02  8.973E-02  9.634E-02  1.025E-01 24799.00 24766.00 10.882    0     .000
   34.000      7.871E-02  8.463E-02  9.100E-02  9.761E-02 24800.00 24766.00 10.881    0     .000
   35.000      7.412E-02  7.982E-02  8.596E-02  9.198E-02 24801.00 24766.00 10.880    0     .000
   36.000      6.967E-02  7.514E-02  8.103E-02  8.830E-02 24802.00 24766.00 10.879    0     .000
   37.000      6.548E-02  7.073E-02  7.639E-02  8.235E-02 24803.00 24766.00 10.878    0     .000
   38.000      6.154E-02  6.658E-02  7.202E-02  7.791E-02 24804.00 24766.00 10.877    0     .000
   39.000      5.785E-02  6.267E-02  6.789E-02  7.323E-02 24805.00 24766.00 10.876    0     .000
   40.000      5.437E-02  5.899E-02  6.401E-02  6.871E-02 24806.00 24766.00 10.875    0     .000
   41.000      5.091E-02  5.532E-02  6.011E-02  6.389E-02 24807.00 24766.00 10.874    0     .000
   42.000      4.766E-02  5.187E-02  5.645E-02  6.151E-02 24808.00 24766.00 10.874    0     .000
   43.000      4.463E-02  4.864E-02  5.301E-02  5.740E-02 24809.00 24766.00 10.873    0     .000
   44.000      4.179E-02  4.561E-02  4.978E-02  5.378E-02 24810.00 24766.00 10.872    0     .000
   45.000      3.913E-02  4.277E-02  4.676E-02  5.095E-02 24811.00 24766.00 10.871    0     .000
   46.000      3.663E-02  4.010E-02  4.390E-02  4.716E-02 24812.00 24766.00 10.870    0     .000
   47.000      3.429E-02  3.760E-02  4.122E-02  4.307E-02 24813.00 24766.00 10.869    0     .000
   48.000      3.211E-02  3.525E-02  3.871E-02  4.049E-02 24814.00 24766.00 10.868    0     .000
   49.000      3.006E-02  3.306E-02  3.635E-02  3.748E-02 24815.00 24766.00 10.867    0     .000
   50.000      2.815E-02  3.100E-02  3.414E-02  3.468E-02 24816.00 24766.00 10.866    0     .000
   51.000      2.641E-02  2.913E-02  3.213E-02  3.184E-02 24817.00 24766.00 10.865    0     .000
   52.000      2.479E-02  2.738E-02  3.024E-02  2.831E-02 24818.00 24766.00 10.864    0     .000
   53.000      2.326E-02  2.573E-02  2.846E-02  2.625E-02 24819.00 24766.00 10.863    0     .000
   54.000      2.183E-02  2.418E-02  2.679E-02  2.519E-02 24820.00 24766.00 10.862    0     .000
   55.000      2.049E-02  2.273E-02  2.522E-02  2.374E-02 24821.00 24766.00 10.862    0     .000
   56.000      1.925E-02  2.139E-02  2.376E-02  2.202E-02 24822.00 24766.00 10.861    0     .000
   57.000      1.809E-02  2.013E-02  2.239E-02  2.060E-02 24823.00 24766.00 10.860    0     .000
   58.000      1.700E-02  1.894E-02  2.110E-02  1.907E-02 24824.00 24766.00 10.859    0     .000
   59.000      1.597E-02  1.783E-02  1.989E-02  1.779E-02 24825.00 24766.00 10.858    0     .000
   60.000      1.501E-02  1.678E-02  1.875E-02  1.739E-02 24826.00 24766.00 10.857    0     .000
   61.000      1.412E-02  1.581E-02  1.769E-02  1.616E-02 24827.00 24766.00 10.856    0     .000
   62.000      1.329E-02  1.489E-02  1.669E-02  1.551E-02 24828.00 24766.00 10.855    0     .000
   63.000      1.250E-02  1.403E-02  1.575E-02  1.512E-02 24829.00 24766.00 10.854    0     .000
   64.000      1.176E-02  1.322E-02  1.486E-02  1.493E-02 24830.00 24766.00 10.853    0     .000
   65.000      1.107E-02  1.246E-02  1.403E-02  1.471E-02 24831.00 24766.00 10.852    0     .000
   66.000      1.043E-02  1.176E-02  1.325E-02  1.327E-02 24832.00 24766.00 10.851    0     .000
   67.000      9.824E-03  1.109E-02  1.252E-02  1.283E-02 24833.00 24766.00 10.851    0     .000
   68.000      9.256E-03  1.046E-02  1.183E-02  1.202E-02 24834.00 24766.00 10.850    0     .000
   69.000      8.721E-03  9.873E-03  1.118E-02  1.113E-02 24835.00 24766.00 10.849    0     .000
   70.000      8.218E-03  9.317E-03  1.056E-02  1.050E-02 24836.00 24766.00 10.848    0     .000
   71.000      7.743E-03  8.792E-03  9.982E-03  9.692E-03 24837.00 24766.00 10.847    0     .000
   72.000      7.297E-03  8.297E-03  9.433E-03  8.979E-03 24838.00 24766.00 10.846    0     .000
   73.000      6.877E-03  7.830E-03  8.916E-03  7.909E-03 24839.00 24766.00 10.845    0     .000
   74.000      6.482E-03  7.391E-03  8.427E-03  7.542E-03 24840.00 24766.00 10.844    0     .000
   75.000      6.110E-03  6.976E-03  7.966E-03  7.039E-03 24841.00 24766.00 10.843    0     .000
   76.000      5.726E-03  6.548E-03  7.488E-03  6.509E-03 24842.00 24766.00 10.842    0     .000
   77.000      5.369E-03  6.148E-03  7.041E-03  6.061E-03 24843.00 24766.00 10.841    0     .000
   78.000      5.037E-03  5.776E-03  6.623E-03  5.612E-03 24844.00 24766.00 10.840    0     .000
   79.000      4.726E-03  5.428E-03  6.233E-03  4.912E-03 24845.00 24766.00 10.839    0     .000
   80.000      4.437E-03  5.103E-03  5.868E-03  4.457E-03 24846.00 24766.00 10.839    0     .000
   81.000      4.170E-03  4.794E-03  5.512E-03  4.078E-03 24847.00 24766.00 10.838    0     .000
   82.000      3.921E-03  4.507E-03  5.181E-03  3.843E-03 24848.00 24766.00 10.837    0     .000
   83.000      3.688E-03  4.239E-03  4.872E-03  3.888E-03 24849.00 24766.00 10.836    0     .000
   84.000      3.472E-03  3.989E-03  4.584E-03  3.514E-03 24850.00 24766.00 10.835    0     .000
   85.000      3.269E-03  3.756E-03  4.315E-03  3.225E-03 24851.00 24766.00 10.834    0     .000
   86.000      3.080E-03  3.538E-03  4.063E-03  3.071E-03 24852.00 24766.00 10.833    0     .000
   87.000      2.903E-03  3.334E-03  3.829E-03  2.786E-03 24853.00 24766.00 10.832    0     .000
   88.000      2.738E-03  3.143E-03  3.609E-03  2.608E-03 24854.00 24766.00 10.831    0     .000
   89.000      2.583E-03  2.965E-03  3.404E-03  2.576E-03 24855.00 24766.00 10.830    0     .000
   90.000      2.439E-03  2.799E-03  3.212E-03  2.479E-03 24856.00 24766.00 10.829    0     .000
   91.000      2.334E-03  2.678E-03  3.073E-03  2.390E-03 24857.00 24766.00 10.828    0     .000
   92.000      2.234E-03  2.563E-03  2.940E-03  2.216E-03 24858.00 24766.00 10.828    0     .000
   93.000      2.139E-03  2.453E-03  2.814E-03  2.130E-03 24859.00 24766.00 10.827    0     .000
   94.000      2.048E-03  2.349E-03  2.694E-03  2.062E-03 24860.00 24766.00 10.826    0     .000
   95.000      1.962E-03  2.249E-03  2.579E-03  1.963E-03 24861.00 24766.00 10.825    0     .000
   96.000      1.879E-03  2.154E-03  2.470E-03  1.920E-03 24862.00 24766.00 10.824    0     .000
   97.000      1.801E-03  2.064E-03  2.365E-03  1.862E-03 24863.00 24766.00 10.823    0     .000
   98.000      1.726E-03  1.977E-03  2.266E-03  1.798E-03 24864.00 24766.00 10.822    0     .000
   99.000      1.654E-03  1.895E-03  2.171E-03  1.712E-03 24865.00 24766.00 10.821    0     .000
   100.00      1.586E-03  1.816E-03  2.080E-03  1.661E-03 24866.00 24766.00 10.820    0     .000
   101.00      1.520E-03  1.741E-03  1.994E-03  1.665E-03 24867.00 24766.00 10.819    0     .000
   102.00      1.458E-03  1.669E-03  1.911E-03  1.556E-03 24868.00 24766.00 10.818    0     .000
   103.00      1.398E-03  1.601E-03  1.833E-03  1.507E-03 24869.00 24766.00 10.818    0     .000
   104.00      1.341E-03  1.535E-03  1.757E-03  1.485E-03 24870.00 24766.00 10.817    0     .000
   105.00      1.287E-03  1.473E-03  1.685E-03  1.498E-03 24871.00 24766.00 10.816    0     .000
   106.00      1.249E-03  1.429E-03  1.634E-03  1.573E-03 24872.00 24766.00 10.815    0     .000
   107.00      1.211E-03  1.386E-03  1.585E-03  1.458E-03 24873.00 24766.00 10.814    0     .000
   108.00      1.175E-03  1.344E-03  1.537E-03  1.496E-03 24874.00 24766.00 10.813    0     .000
   109.00      1.140E-03  1.304E-03  1.491E-03  1.426E-03 24875.00 24766.00 10.812    0     .000
   110.00      1.106E-03  1.265E-03  1.446E-03  1.402E-03 24876.00 24766.00 10.811    0     .000
   111.00      1.073E-03  1.227E-03  1.402E-03  1.368E-03 24877.00 24766.00 10.810    0     .000
   112.00      1.042E-03  1.190E-03  1.360E-03  1.273E-03 24878.00 24766.00 10.809    0     .000
   113.00      1.011E-03  1.155E-03  1.319E-03  1.198E-03 24879.00 24766.00 10.808    0     .000
   114.00      9.808E-04  1.120E-03  1.280E-03  1.204E-03 24880.00 24766.00 10.807    0     .000
   115.00      9.518E-04  1.087E-03  1.241E-03  1.188E-03 24881.00 24766.00 10.807    0     .000
   116.00      9.246E-04  1.056E-03  1.205E-03  1.128E-03 24882.00 24766.00 10.806    0     .000
   117.00      8.981E-04  1.025E-03  1.170E-03  1.135E-03 24883.00 24766.00 10.805    0     .000
   118.00      8.724E-04  9.958E-04  1.137E-03  1.157E-03 24884.00 24766.00 10.804    0     .000
   119.00      8.475E-04  9.671E-04  1.104E-03  1.131E-03 24885.00 24766.00 10.803    0     .000
